

VAMAS Surface Chemical Analysis Standard Data Transfer Format 1988 May 4
Not specified
MI-600-BE9240AA
600-72-HP\600-72
Thinfilm_20200827.experiment
0
NORM
REGULAR
1
4
Index
d
PositionX [mm]
n
PositionY [mm]
n
PositionZ [mm]
n
0
0
0
0
5
wide
Ni-W
2020
8
27
14
5
46
7
39
Creation
Created by : 600-72-HP\600-72
Date created : 27/08/2020 14:05
Computer : 600-72-HP
Location
Location ID : 0-150W
Sample : Ni-W
Description : (21.195,11.291,0.905)mm
Tilt : 0.00
Charge Neutraliser : On
Filament Current : 0.45A
Filament Bias : 1V
Charge Balance : 4V
Settings
Excitation
Mode : XPS - monochromatic
Tuning : Spectroscopy
Emission current : 15.00mA
Anode library : Al
ESCA modes
Collimation : Slot
Lens : Hybrid
Resolution : 160.00
Scan
Deflection : (0.000, 0.000)mm
wide : 286.690-1491.690eV, Sweeps 1
Start : 286.690eV
End : 1491.690eV
Centre : 889.190eV
Width : 1205.000eV
Step size : 1.000eV
Number Steps : 1205
Dwell time : 100ms
Sweep time : 120s
Sweeps : 1
Instrument Conditions
Work function : -4.50
Acquisition Conditions
X-ray Power : 225.00W
XPS
1
21.19525
11.290625
0.905375
Al (mono)
1486.69
225
1E+37
1E+37
1E+37
1E+37
FAT
160
1E+37
-4.5
1E+37
1E+37
1E+37
1E+37
1E+37
wide

-1
Kinetic energy
eV
286.69
1
2
Intensity
d
Transmission
d
pulse counting
0.0995024875621891
1
0
1E+37
1E+37
1E+37
0
2412
5
6050
46.6505644502972
58.598017086263
2106
58.598017086263
2115
58.5863479982963
2073
58.5746789103295
2052
58.5630098223628
2088
58.5513407343961
2050
58.5396716464294
2050
58.5280025584627
2059
58.516333470496
2069
58.5046643825293
2121
58.4929952945626
2131
58.4813262065959
2135
58.4696571186292
2096
58.4579880306624
2123
58.4463189426957
2098
58.434649854729
2167
58.4229807667623
2165
58.4113116787956
2021
58.3996425908289
2032
58.3879735028622
2060
58.3763044148955
2120
58.3646353269288
2149
58.352966238962
2099
58.3412971509953
2072
58.3296280630286
2103
58.3202989428363
2093
58.3120211125137
2064
58.303743282191
2068
58.2954654518683
2104
58.2871876215457
2107
58.278909791223
2087
58.2706319609004
2130
58.2623541305777
2099
58.254076300255
2066
58.2457984699324
2118
58.2375206396097
2127
58.2292428092871
2070
58.2209649789644
2116
58.2126871486417
2125
58.2044093183191
2144
58.1961314879964
2108
58.1878536576738
2069
58.1795758273511
2135
58.1712979970284
2146
58.1630201667058
2146
58.1547423363831
2168
58.1464645060605
2090
58.1381866757378
2164
58.1299088454151
2135
58.1216310150925
2161
58.1133531847698
2153
58.1050753544472
2190
58.0967975241245
2167
58.0885196938018
2184
58.0802418634792
2132
58.0719640331565
2200
58.0636862028339
2147
58.0554083725112
2107
58.0471305421885
2126
58.0388527118659
2184
58.0305748815432
2095
58.0222970512206
2160
58.0140192208979
2163
58.0057413905752
2132
57.9974635602526
2154
57.9891857299299
2238
57.9809078996073
2160
57.9726300692846
2104
57.9643522389619
2230
57.9560744086393
2216
57.9477965783166
2117
57.939518747994
2141
57.9312409176713
2163
57.9229630873486
2127
57.914685257026
2080
57.9055597222663
2149
57.8960533347885
2087
57.8865469473107
2091
57.877040559833
2142
57.8675341723552
2121
57.8580277848774
2205
57.8485213973996
2127
57.8390150099219
2133
57.8295086224441
2162
57.8200022349663
2117
57.8104958474885
2118
57.8009894600108
2172
57.791483072533
2191
57.7819766850552
2175
57.7724702975775
2153
57.7629639100997
2175
57.7534575226219
2172
57.7439511351441
2189
57.7344447476664
2219
57.7249383601886
2143
57.7154319727108
2168
57.705925585233
2150
57.6964191977553
2091
57.6869128102775
2135
57.6774064227997
2194
57.6679000353219
2164
57.6583936478442
2163
57.6488872603664
2179
57.6393808728886
2137
57.6298744854109
2164
57.6203680979331
2244
57.6108617104553
2204
57.6013553229775
2127
57.5918489354998
2140
57.582342548022
2164
57.5728361605442
2119
57.5633297730664
2158
57.5538233855887
2150
57.5443169981109
2103
57.5348106106331
2201
57.5253042231553
2193
57.5157978356776
2184
57.5062914481998
2147
57.496785060722
2186
57.4872786732442
2113
57.4777722857665
2101
57.4682658982887
2105
57.4587595108109
2166
57.4492531233332
2172
57.4397467358554
2137
57.4320196725107
2142
57.4250920156606
2181
57.4181643588105
2074
57.4112367019604
2127
57.4043090451103
2164
57.3973813882602
2228
57.3904537314101
2167
57.38352607456
2239
57.3765984177099
2162
57.3696707608597
2190
57.3627431040096
2161
57.3558154471595
2181
57.3488877903094
2131
57.3419601334593
2165
57.3350324766092
2209
57.3281048197591
2227
57.321177162909
2258
57.3142495060589
2174
57.3073218492088
2142
57.3003941923587
2240
57.2934665355086
2246
57.2865388786585
2216
57.2796112218084
2254
57.2726835649583
2251
57.2657559081082
2279
57.2588282512581
2225
57.251900594408
2280
57.2449729375578
2229
57.2380452807077
2189
57.2311176238576
2209
57.2241899670075
2185
57.2172623101574
2239
57.2103346533073
2211
57.2034069964572
2192
57.1964793396071
2172
57.189551682757
2271
57.1826240259069
2288
57.1756963690568
2223
57.1687687122067
2287
57.1618410553566
2282
57.1549133985065
2281
57.1479857416564
2212
57.1410580848063
2234
57.1341304279562
2178
57.127202771106
2234
57.1202751142559
2269
57.1133474574058
2228
57.1064198005557
2258
57.0994921437056
2269
57.0925644868555
2288
57.0897458285395
2331
57.0887732420287
2319
57.0878006555178
2262
57.086828069007
2308
57.0858554824962
2276
57.0848828959853
2259
57.0839103094745
2302
57.0829377229636
2299
57.0819651364528
2267
57.080992549942
2314
57.0800199634311
2295
57.0790473769203
2307
57.0780747904095
2333
57.0771022038986
2345
57.0761296173878
2310
57.075157030877
2373
57.0741844443661
2409
57.0732118578553
2384
57.0722392713444
2325
57.0712666848336
2309
57.0702940983228
2384
57.0693215118119
2339
57.0683489253011
2408
57.0673763387903
2285
57.0664037522794
2319
57.0654311657686
2290
57.0644585792577
2260
57.0634859927469
2424
57.0625134062361
2409
57.0615408197252
2465
57.0605682332144
2526
57.0595956467036
2490
57.0586230601927
2495
57.0576504736819
2520
57.056677887171
2416
57.0557053006602
2352
57.0547327141494
2333
57.0537601276385
2282
57.0527875411277
2286
57.0518149546169
2315
57.050842368106
2246
57.0498697815952
2232
57.0488971950844
2235
57.0479246085735
2290
57.0469520220627
2311
57.0459794355518
2234
57.045006849041
2308
57.0440342625302
2340
57.0430616760193
2423
57.0420890895085
2501
57.0402681900095
2637
57.0380661643855
2737
57.0358641387615
2731
57.0336621131375
2621
57.0314600875134
2587
57.0292580618894
2382
57.0270560362654
2255
57.0248540106413
2243
57.0226519850173
2111
57.0204499593933
2032
57.0182479337693
2015
57.0160459081452
1932
57.0138438825212
1910
57.0116418568972
1808
57.0094398312731
1788
57.0072378056491
1822
57.0050357800251
1830
57.0028337544011
1859
57.000631728777
1868
56.998429703153
1799
56.996227677529
1842
56.9940256519049
1868
56.9918236262809
1748
56.9896216006569
1809
56.9874195750328
1774
56.9852175494088
1808
56.9830155237848
1806
56.9808134981608
1801
56.9786114725367
1787
56.9764094469127
1820
56.9742074212887
1900
56.9720053956646
1884
56.9698033700406
1859
56.9676013444166
1799
56.9653993187925
1825
56.9631972931685
1848
56.9609952675445
1846
56.9587932419205
1952
56.9565912162964
1883
56.9543891906724
1884
56.9521871650484
1828
56.9499851394243
1841
56.9477831138003
1881
56.9455810881763
1767
56.9433790625523
1841
56.9411770369282
1904
56.9389750113042
1885
56.9367729856802
1863
56.9345709600561
1880
56.9323689344321
1799
56.9344206955635
1900
56.9383835782807
1868
56.9423464609979
1864
56.9463093437151
1856
56.9502722264323
1861
56.9542351091495
1870
56.9581979918667
1872
56.9621608745839
1840
56.9661237573011
1857
56.9700866400183
1896
56.9740495227355
1915
56.9780124054527
1910
56.9819752881699
1858
56.9859381708871
1844
56.9899010536043
1844
56.9938639363215
1858
56.9978268190387
1958
57.0017897017559
1962
57.0057525844731
1890
57.0097154671903
1928
57.0136783499076
1902
57.0176412326247
1892
57.021604115342
1937
57.0255669980592
1884
57.0295298807764
1902
57.0334927634936
1900
57.0374556462108
1881
57.041418528928
1890
57.0453814116452
1894
57.0493442943624
1900
57.0533071770796
1947
57.0572700597968
1925
57.061232942514
1946
57.0651958252312
1955
57.0691587079484
1960
57.0731215906656
1950
57.0770844733828
1904
57.0810473561
1961
57.0850102388172
1957
57.0889731215344
1981
57.0929360042516
1910
57.0968988869688
1950
57.100861769686
1982
57.1048246524032
1960
57.1087875351204
2015
57.1127504178376
1979
57.1167133005548
1939
57.120676183272
1958
57.1246390659892
1924
57.1286019487064
1935
57.1318988073909
1940
57.1348964378868
1890
57.1378940683826
1957
57.1408916988785
1993
57.1438893293744
1929
57.1468869598703
2019
57.1498845903662
1978
57.1528822208621
1937
57.155879851358
1957
57.1588774818538
1997
57.1618751123497
1925
57.1648727428456
1979
57.1678703733415
2035
57.1708680038374
1940
57.1738656343333
2009
57.1768632648292
1990
57.179860895325
1997
57.1828585258209
1978
57.1858561563168
1984
57.1888537868127
1961
57.1918514173086
2003
57.1948490478045
2010
57.1978466783004
1988
57.2008443087962
1949
57.2038419392921
1954
57.206839569788
1934
57.2098372002839
1926
57.2128348307798
1958
57.2158324612757
1966
57.2188300917716
1975
57.2218277222674
1968
57.2248253527633
2028
57.2278229832592
2102
57.2308206137551
2024
57.233818244251
2026
57.2368158747469
2015
57.2398135052428
1976
57.2428111357386
1988
57.2458087662345
1997
57.2488063967304
1995
57.2518040272263
1991
57.2548016577222
2103
57.2577992882181
2024
57.260796918714
1974
57.2637945492098
2005
57.2667921797057
2051
57.2697898102016
1966
57.2727874406975
2046
57.2757850711934
2078
57.2787827016893
2056
57.277405940887
2012
57.2740638738494
2052
57.2707218068117
2044
57.2673797397741
2037
57.2640376727364
2088
57.2606956056987
2009
57.2573535386611
2006
57.2540114716234
2074
57.2506694045858
2059
57.2473273375481
2043
57.2439852705105
2005
57.2406432034728
2021
57.2373011364352
2086
57.2339590693975
2043
57.2306170023598
2055
57.2272749353222
2038
57.2239328682845
2111
57.2205908012469
2080
57.2172487342092
2070
57.2139066671716
2071
57.2105646001339
2063
57.2072225330963
2082
57.2038804660586
2022
57.2005383990209
2071
57.1971963319833
2122
57.1938542649456
2078
57.190512197908
2039
57.1871701308703
2097
57.1838280638327
2091
57.180485996795
2045
57.1771439297573
2100
57.1738018627197
2132
57.170459795682
2132
57.1671177286444
2130
57.1637756616067
2031
57.1604335945691
2081
57.1570915275314
2050
57.1537494604938
2042
57.1504073934561
2166
57.1470653264184
2159
57.1403441179835
2051
57.132104744573
2076
57.1238653711626
2155
57.1156259977521
2163
57.1073866243416
2143
57.0991472509311
2158
57.0909078775206
2173
57.0826685041101
2091
57.0744291306996
2161
57.0661897572891
2175
57.0579503838786
2107
57.0497110104681
2122
57.0414716370576
2142
57.0332322636471
2146
57.0249928902366
2150
57.0167535168262
2109
57.0085141434157
2118
57.0002747700052
2129
56.9920353965947
2103
56.9837960231842
2085
56.9755566497737
2125
56.9673172763632
2219
56.9590779029527
2166
56.9508385295422
2175
56.9425991561317
2155
56.9343597827212
2164
56.9261204093107
2107
56.9178810359003
2159
56.9096416624898
2143
56.9014022890793
2183
56.8931629156688
2127
56.8849235422583
2174
56.8766841688478
2229
56.8684447954373
2219
56.8602054220268
2265
56.8519660486163
2212
56.8437266752058
2233
56.8354873017953
2238
56.8272479283849
2202
56.8190085549744
2095
56.8107691815639
2149
56.8025298081534
2240
56.7942904347429
2279
56.7860510613324
2214
56.7778116879219
2238
56.7695723145114
2258
56.7613329411009
2287
56.7530935676904
2256
56.7448541942799
2235
56.7366148208694
2233
56.728375447459
2275
56.7201360740485
2226
56.711896700638
2281
56.7036573272275
2234
56.695417953817
2216
56.6871785804065
2206
56.678939206996
2286
56.6706998335855
2305
56.662460460175
2278
56.6542210867645
2342
56.6590544665031
2226
56.6697611121493
2252
56.6804677577955
2311
56.6911744034416
2274
56.7018810490878
2275
56.712587694734
2261
56.7232943403801
2268
56.7340009860263
2183
56.7447076316725
2239
56.7554142773187
2258
56.7661209229648
2299
56.776827568611
2282
56.7875342142572
2278
56.7982408599033
2310
56.8089475055495
2290
56.8196541511957
2333
56.8303607968418
2331
56.841067442488
2343
56.8517740881342
2313
56.8624807337803
2428
56.8731873794265
2342
56.8838940250727
2331
56.8946006707189
2418
56.905307316365
2368
56.9160139620112
2317
56.9267206076574
2334
56.9374272533035
2327
56.9481338989497
2291
56.9588405445959
2326
56.969547190242
2324
56.9802538358882
2394
56.9909604815344
2359
57.0016671271805
2361
57.0123737728267
2385
57.0230804184729
2333
57.0337870641191
2369
57.0444937097652
2327
57.0552003554114
2323
57.0659070010576
2469
57.0766136467037
2567
57.0873202923499
2529
57.0980269379961
2435
57.1087335836422
2494
57.1194402292884
2477
57.1301468749346
2398
57.1408535205807
2389
57.1515601662269
2363
57.1622668118731
2362
57.1729734575192
2394
57.1836801031654
2434
57.183371028553
2410
57.1781128622301
2387
57.1728546959073
2349
57.1675965295845
2386
57.1623383632616
2456
57.1570801969388
2444
57.151822030616
2478
57.1465638642931
2466
57.1413056979703
2345
57.1360475316474
2412
57.1307893653246
2365
57.1255311990018
2452
57.1202730326789
2503
57.1150148663561
2479
57.1097567000333
2488
57.1044985337104
2462
57.0992403673876
2464
57.0939822010647
2536
57.0887240347419
2453
57.0834658684191
2479
57.0782077020962
2417
57.0729495357734
2469
57.0676913694506
2476
57.0624332031277
2533
57.0571750368049
2490
57.0519168704821
2581
57.0466587041592
2531
57.0414005378364
2480
57.0361423715135
2448
57.0308842051907
2518
57.0256260388679
2513
57.020367872545
2495
57.0151097062222
2479
57.0098515398994
2492
57.0045933735765
2489
56.9993352072537
2503
56.9940770409309
2502
56.988818874608
2591
56.9835607082852
2602
56.9783025419623
2642
56.9730443756395
2578
56.9677862093167
2577
56.9625280429938
2540
56.957269876671
2482
56.9520117103482
2522
56.9467535440253
2604
56.9414953777025
2638
56.9362372113796
2630
56.9309790450568
2606
56.925720878734
2630
56.9204627124111
2661
56.9152045460883
2645
56.9099463797655
2650
56.9046882134426
2657
56.8994300471198
2659
56.894171880797
2653
56.8889137144741
2684
56.8836555481513
2563
56.8783973818284
2648
56.8731392155056
2637
56.8773546692112
2658
56.8858263869874
2571
56.8942981047637
2687
56.9027698225399
2685
56.9112415403162
2614
56.9197132580925
2612
56.9281849758687
2566
56.936656693645
2658
56.9451284114213
2713
56.9536001291975
2623
56.9620718469738
2582
56.97054356475
2622
56.9790152825263
2701
56.9874870003026
2644
56.9959587180788
2732
57.0044304358551
2661
57.0129021536314
2712
57.0213738714076
2815
57.0298455891839
2835
57.0383173069601
2808
57.0467890247364
2779
57.0552607425127
2784
57.0637324602889
2818
57.0722041780652
2791
57.0806758958415
2708
57.0891476136177
2721
57.097619331394
2665
57.1060910491703
2669
57.1145627669465
2656
57.1230344847228
2643
57.131506202499
2601
57.1399779202753
2541
57.1484496380516
2563
57.1569213558278
2558
57.1653930736041
2664
57.1738647913804
2640
57.1823365091566
2658
57.1908082269329
2650
57.1992799447091
2650
57.2077516624854
2584
57.2021302248228
2661
57.1901770796441
2684
57.1782239344654
2679
57.1662707892867
2719
57.1543176441081
2735
57.1423644989294
2614
57.1304113537507
2660
57.1184582085721
2675
57.1065050633934
2705
57.0945519182147
2741
57.082598773036
2727
57.0706456278574
2673
57.0586924826787
2656
57.0467393375
2709
57.0347861923214
2686
57.0228330471427
2674
57.010879901964
2699
56.9989267567853
2655
56.9869736116067
2654
56.975020466428
2658
56.9630673212493
2640
56.9511141760707
2724
56.939161030892
2742
56.9272078857133
2785
56.9152547405346
2751
56.903301595356
2757
56.8913484501773
2780
56.8793953049986
2760
56.86744215982
2780
56.8554890146413
2769
56.8435358694626
2710
56.8315827242839
2759
56.8196295791053
2718
56.8076764339266
2726
56.7957232887479
2676
56.7837701435693
2571
56.7718169983906
2511
56.7598638532119
2527
56.7479107080332
2538
56.7359575628546
2490
56.7240044176759
2487
56.7120512724972
2426
56.7000981273185
2417
56.6881449821399
2492
56.6761918369612
2853
56.6642386917825
3694
56.6522855466039
5454
56.6403324014252
6050
56.6283792562465
3985
56.6164261110678
2452
56.6044729658892
2221
56.5925198207105
2147
56.5805666755318
2078
56.5686135303532
2111
56.5566603851745
2122
56.5447072399958
2182
56.5327540948171
2121
56.5208009496385
2184
56.5088478044598
2182
56.4968946592811
2148
56.4945513320744
2176
56.4965254593189
2172
56.4984995865633
2149
56.5004737138078
2205
56.5024478410522
2167
56.5044219682967
2150
56.5063960955411
2113
56.5083702227856
2170
56.51034435003
2090
56.5123184772745
2111
56.514292604519
2107
56.5162667317634
2159
56.5182408590079
2096
56.5202149862523
2125
56.5221891134968
2128
56.5241632407412
2112
56.5261373679857
2120
56.5281114952301
2107
56.5300856224746
2052
56.532059749719
2261
56.5340338769635
2239
56.5360080042079
2266
56.5379821314524
2257
56.5399562586968
2236
56.5419303859413
2202
56.5439045131858
2156
56.5458786404302
2124
56.5478527676747
2120
56.5498268949191
2033
56.5518010221636
2003
56.553775149408
1997
56.5557492766525
2065
56.5577234038969
2111
56.5596975311414
1997
56.5616716583858
1970
56.5636457856303
2032
56.5656199128747
2015
56.5675940401192
1978
56.5695681673637
1933
56.5715422946081
1878
56.5771412893441
2010
56.5843688477358
1994
56.5915964061275
2034
56.5988239645192
1942
56.6060515229109
2011
56.6132790813026
2039
56.6205066396942
2074
56.6277341980859
2013
56.6349617564776
2024
56.6421893148693
1956
56.649416873261
1971
56.6566444316527
1976
56.6638719900444
1928
56.671099548436
1917
56.6783271068277
2009
56.6855546652194
2038
56.6927822236111
1919
56.7000097820028
2023
56.7072373403945
2054
56.7144648987861
1964
56.7216924571778
1966
56.7289200155695
2009
56.7361475739612
2052
56.7433751323529
1962
56.7506026907446
1933
56.7578302491362
1994
56.7650578075279
1969
56.7722853659196
1920
56.7795129243113
1967
56.786740482703
2031
56.7939680410947
1974
56.8011955994863
2052
56.808423157878
2029
56.8156507162697
1975
56.8228782746614
1957
56.8301058330531
1996
56.8373333914448
2007
56.8445609498364
2040
56.8517885082281
1942
56.8590160666198
1998
56.8662436250115
1974
56.8734711834032
1907
56.8806987417949
1917
56.8879263001866
1908
56.8951538585782
2040
56.9023814169699
2088
56.9096089753616
2061
56.9168365337533
2241
56.924064092145
2424
56.9312916505367
2447
56.9447064591376
2523
56.960901046818
2412
56.9770956344984
2216
56.9932902221788
2099
57.0094848098593
1962
57.0256793975397
1908
57.0418739852201
1889
57.0580685729005
1837
57.074263160581
1759
57.0904577482614
1772
57.1066523359418
1710
57.1228469236222
1656
57.1390415113026
1705
57.1552360989831
1679
57.1714306866635
1658
57.1876252743439
1727
57.2038198620243
1711
57.2200144497048
1668
57.2362090373852
1655
57.2524036250656
1656
57.268598212746
1743
57.2847928004264
1626
57.3009873881069
1705
57.3171819757873
1666
57.3333765634677
1716
57.3495711511481
1946
57.3657657388286
1980
57.381960326509
1836
57.3981549141894
1708
57.4143495018698
1649
57.4305440895502
1645
57.4467386772307
1666
57.4629332649111
1625
57.4791278525915
1632
57.4953224402719
1662
57.5115170279524
1671
57.5277116156328
1677
57.5439062033132
1605
57.5601007909936
1637
57.576295378674
1672
57.5496097333415
1630
57.5036590557857
1711
57.4577083782299
1672
57.4117577006741
1639
57.3658070231183
1578
57.3198563455625
1647
57.2739056680067
1650
57.2279549904509
1606
57.1820043128951
1581
57.1360536353393
1634
57.0901029577835
1648
57.0441522802277
1568
56.9982016026719
1588
56.9522509251161
1642
56.9063002475603
1665
56.8603495700045
1666
56.8143988924487
1654
56.7684482148929
1635
56.7224975373371
1643
56.6765468597813
1602
56.6305961822256
1680
56.5846455046698
1662
56.538694827114
1660
56.4927441495582
1637
56.4467934720024
1645
56.4008427944466
1737
56.3548921168908
1653
56.308941439335
1593
56.2629907617792
1641
56.2170400842234
1650
56.1710894066676
1617
56.1251387291118
1576
56.079188051556
1641
56.0332373740002
1669
55.9872866964444
1615
55.9413360188886
1619
55.8953853413328
1634
55.849434663777
1552
55.8034839862212
1539
55.7575333086654
1585
55.7115826311096
1654
55.6656319535538
1673
55.619681275998
1583
55.5737305984422
1625
55.5277799208864
1685
55.4818292433306
1623
55.4358785657748
1641
55.389927888219
1633
55.3439772106633
1619
55.2980265331075
1534
55.2520758555517
1615
55.2061251779959
1615
55.1601745004401
1597
55.1142238228843
1584
55.0682731453285
1578
55.0223224677727
1606
54.9763717902169
1614
54.9304211126611
1610
54.8844704351053
1617
54.8385197575495
1627
54.7925690799937
1633
54.7466184024379
1589
54.7006677248821
1633
54.6547170473263
1642
54.6087663697705
1638
54.5628156922147
1685
54.5168650146589
1659
54.4709143371031
1691
54.4249636595473
1627
54.3790129819915
1610
54.3330623044357
1653
54.2871116268799
1591
54.2411609493241
1612
54.1952102717683
1577
54.1492595942125
1637
54.1033089166568
1622
54.057358239101
1604
54.0114075615452
1599
53.9654568839894
1653
53.9195062064336
1599
53.8735555288778
1603
53.827604851322
1582
53.7816541737662
1650
53.7357034962104
1606
53.6897528186546
1630
53.6438021410988
1593
53.597851463543
1634
53.5519007859872
1580
53.5059501084314
1606
53.4599994308756
1602
53.452642263097
1633
53.4626242084067
1561
53.4726061537165
1557
53.4825880990262
1639
53.4925700443359
1613
53.5025519896456
1570
53.5125339349553
1593
53.5225158802651
1611
53.5324978255748
1676
53.5424797708845
1722
53.5524617161942
1764
53.562443661504
1800
53.5724256068137
2036
53.5824075521234
2235
53.5923894974331
1992
53.6023714427428
1677
53.6123533880526
1664
53.6223353333623
1616
53.632317278672
1571
53.6422992239817
1641
53.6522811692914
1619
53.6622631146012
1678
53.6722450599109
1647
53.6822270052206
1611
53.6922089505303
1588
53.7021908958401
1608
53.7121728411498
1495
53.7221547864595
1560
53.7321367317692
1542
53.7421186770789
1529
53.7521006223887
1531
53.7620825676984
1617
53.7720645130081
1670
53.7820464583178
1648
53.7920284036276
1745
53.8020103489373
1875
53.811992294247
2164
53.8219742395567
2346
53.8319561848664
2268
53.8419381301762
1931
53.8519200754859
1657
53.8619020207956
1474
53.8718839661053
1304
53.881865911415
1263
53.8918478567248
1251
53.9018298020345
1301
53.9118117473442
1385
53.9217936926539
1542
53.9317756379637
1885
53.9417575832734
2273
53.9396949412828
2413
53.9322209629688
2121
53.9247469846548
1611
53.9172730063408
1259
53.9097990280269
1048
53.9023250497129
884
53.8948510713989
822
53.887377093085
764
53.879903114771
660
53.872429136457
666
53.864955158143
669
53.8574811798291
627
53.8500072015151
590
53.8425332232011
625
53.8350592448872
595
53.8275852665732
606
53.8201112882592
613
53.8126373099453
598
53.8051633316313
565
53.7976893533173
569
53.7902153750033
570
53.7827413966894
547
53.7752674183754
579
53.7677934400614
588
53.7603194617475
601
53.7528454834335
592
53.7453715051195
564
53.7378975268055
529
53.7304235484916
539
53.7229495701776
538
53.7154755918636
541
53.7080016135497
532
53.7005276352357
580
53.6930536569217
546
53.6855796786077
534
53.6781057002938
571
53.6706317219798
520
53.6631577436658
545
53.6556837653519
532
53.6482097870379
570
53.6407358087239
530
53.63326183041
528
53.625787852096
542
53.618313873782
572
53.610839895468
538
53.6033659171541
529
53.5958919388401
546
53.5884179605261
539
53.5809439822122
552
53.5734700038982
554
53.5659960255842
528
53.5585220472702
549
53.5510480689563
589
53.5435740906423
566
53.5361001123283
549
53.5286261340144
533
53.5211521557004
558
53.5136781773864
545
53.5062041990725
537
53.4987302207585
517
53.4825107461966
523
53.4623621356394
535
53.4422135250821
511
53.4220649145249
534
53.4019163039676
545
53.3817676934104
595
53.3616190828531
566
53.3414704722959
534
53.3213218617386
563
53.3011732511814
553
53.2810246406241
527
53.2608760300669
542
53.2407274195096
532
53.2205788089524
536
53.2004301983951
511
53.1802815878379
559
53.1601329772806
564
53.1399843667234
536
53.1198357561661
551
53.0996871456089
536
53.0795385350516
561
53.0593899244944
581
53.0392413139371
548
53.0190927033799
522
52.9989440928226
533
52.9787954822654
509
52.9586468717081
518
52.9384982611509
544
52.9183496505936
544
52.8982010400364
550
52.8780524294791
538
52.8579038189219
553
52.8377552083646
528
52.8176065978074
524
52.7974579872501
528
52.7773093766929
546
52.7571607661356
554
52.7370121555784
532
52.7168635450211
492
52.6967149344639
516
52.6765663239066
535
52.6564177133494
563
52.6362691027921
531
52.6161204922349
572
52.5959718816776
510
52.5758232711204
554
52.5556746605631
533
52.5355260500059
549
52.5153774394486
543
52.4952288288914
541
52.4750802183341
512
52.4549316077769
523
52.4347829972196
541
52.4146343866624
525
52.3944857761051
497
52.3743371655479
559
52.3390167843456
546
52.2968801003896
539
52.2547434164337
576
52.2126067324778
589
52.1704700485219
563
52.128333364566
584
52.0861966806101
574
52.0440599966542
558
52.0019233126982
527
51.9597866287423
543
51.9176499447864
548
51.8755132608305
534
51.8333765768746
532
51.7912398929187
556
51.7491032089628
522
51.7069665250068
533
51.6648298410509
544
51.622693157095
531
51.5805564731391
537
51.5384197891832
549
51.4962831052273
559
51.4541464212714
541
51.4120097373155
519
51.3698730533595
526
51.3277363694036
574
51.2855996854477
556
51.2434630014918
562
51.2013263175359
563
51.15918963358
565
51.1170529496241
575
51.0749162656681
576
51.0327795817122
580
50.9906428977563
550
50.9485062138004
536
50.9063695298445
565
50.8642328458886
587
50.8220961619327
549
50.7799594779767
557
50.7378227940208
546
50.6956861100649
572
50.653549426109
588
50.6114127421531
565
50.5692760581972
578
50.5271393742413
589
50.4850026902853
589
50.4428660063294
554
50.4007293223735
548
50.3585926384176
564
50.3164559544617
560
50.2743192705058
585
50.2321825865499
621
50.190045902594
600
50.147909218638
600
50.1057725346821
576
50.0636358507262
546
50.0214991667703
572
49.9793624828144
575
49.9372257988585
547
49.8950891149026
566
49.8529524309466
553
49.8108157469907
564
49.7686790630348
541
49.7265423790789
551
49.684405695123
552
49.6422690111671
571
49.6001323272112
617
49.5579956432552
622
49.5158589592993
584
49.4737222753434
594
49.4315855913875
610
49.3894489074316
613
49.3473122234757
591
49.3051755395198
617
49.2630388555638
618
49.2209021716079
601
49.178765487652
560
49.1366288036961
561
49.0944921197402
609
49.0523554357843
617
49.0102187518284
635
48.9680820678725
614
48.9259453839165
616
48.8838086999606
549
48.8416720160047
478
48.7995353320488
423
48.7573986480929
413
48.715261964137
395
48.6731252801811
441
48.6309885962251
455
48.5888519122692
532
48.5467152283133
560
48.5045785443574
546
48.4624418604015
739
48.4203051764456
1513
48.3781684924897
2015
48.3360318085337
2113
48.2938951245778
2235
48.2517584406219
1102
48.209621756666
229
48.1674850727101
108
48.1253483887542
74
48.0832117047983
80
48.0410750208423
72
47.9989383368864
74
47.9568016529305
65
47.9146649689746
71
47.8725282850187
87
47.8303916010628
94
47.7882549171069
122
47.746118233151
150
47.703981549195
130
47.6618448652391
80
47.6197081812832
51
47.5775714973273
45
47.5354348133714
36
47.4932981294155
40
47.4511614454596
32
47.4090247615036
36
47.3668880775477
32
47.3247513935918
31
47.2826147096359
37
47.24047802568
53
47.1983413417241
83
47.1562046577682
110
47.1140679738122
129
47.0719312898563
130
47.0297946059004
117
46.9876579219445
83
46.9455212379886
40
46.9033845540327
18
46.8612478700768
8
46.8191111861209
8
46.7769745021649
9
46.734837818209
5
46.6927011342531
9
46.6505644502972
Ni 2p
Ni-W
2020
8
27
14
22
28
7
39
Creation
Created by : 600-72-HP\600-72
Date created : 27/08/2020 14:22
Computer : 600-72-HP
Location
Location ID : 0-150W
Sample : Ni-W
Description : (21.195,11.291,0.905)mm
Tilt : 0.00
Charge Neutraliser : On
Filament Current : 0.45A
Filament Bias : 1V
Charge Balance : 4V
Settings
Excitation
Mode : XPS - monochromatic
Tuning : Spectroscopy
Emission current : 15.00mA
Anode library : Al
ESCA modes
Collimation : Slot
Lens : Hybrid
Resolution : 20.00
Scan
Deflection : (0.000, 0.000)mm
Ni 2p : 586.690-646.690eV, Sweeps 1
Start : 586.690eV
End : 646.690eV
Centre : 616.690eV
Width : 60.000eV
Step size : 0.100eV
Number Steps : 600
Dwell time : 100ms
Sweep time : 60s
Sweeps : 1
Instrument Conditions
Work function : -4.50
Acquisition Conditions
X-ray Power : 225.00W
XPS
2
21.19525
11.290625
0.905375
Al (mono)
1486.69
225
1E+37
1E+37
1E+37
1E+37
FAT
20
1E+37
-4.5
1E+37
1E+37
1E+37
1E+37
1E+37
Ni
2p
-1
Kinetic energy
eV
586.69
0.1
2
Intensity
d
Transmission
d
pulse counting
0.099833
1
0
1E+37
1E+37
1E+37
0
1202
87
144
2.16443894216647
2.16811548515889
114
2.16443894216647
119
2.16444585566695
125
2.16445276916744
122
2.16445968266793
95
2.16446659616842
124
2.1644735096689
108
2.16448042316939
122
2.16448733666988
105
2.16449425017037
125
2.16450116367085
111
2.16450807717134
112
2.16451499067183
109
2.16452190417232
98
2.1645288176728
113
2.16453573117329
109
2.16454264467378
117
2.16454955817427
113
2.16455647167475
112
2.16456338517524
96
2.16457029867573
108
2.16457721217622
112
2.1645841256767
110
2.16459103917719
101
2.16459795267768
114
2.16460486617817
118
2.16461177967865
109
2.16461869317914
102
2.16462560667963
101
2.16463252018012
123
2.16463943368061
105
2.16464634718109
108
2.16465326068158
112
2.16466017418207
118
2.16466708768256
114
2.16467400118304
114
2.16468091468353
101
2.16468782818402
106
2.16469474168451
115
2.16470165518499
108
2.16470856868548
118
2.16471548218597
104
2.16472239568646
116
2.16472930918694
120
2.16473622268743
108
2.16474313618792
106
2.16475004968841
100
2.16475696318889
103
2.16476387668938
95
2.16477079018987
106
2.16477770369036
97
2.16478461719084
114
2.16479153069133
103
2.16479844419182
115
2.16480535769231
114
2.16481227119279
111
2.16481918469328
118
2.16482609819377
103
2.16483301169426
103
2.16483992519474
103
2.16484683869523
102
2.16485375219572
99
2.16486066569621
111
2.16486757919669
119
2.16487449269718
132
2.16488140619767
118
2.16488831969816
109
2.16489523319864
115
2.16490214669913
112
2.16490906019962
102
2.16491597370011
103
2.16492288720059
119
2.16492980070108
123
2.16493671420157
102
2.16494362770206
93
2.16495054120254
100
2.16495745470303
115
2.16496436820352
92
2.16497128170401
113
2.16497819520449
109
2.16498510870498
108
2.16499202220547
106
2.16499893570596
124
2.16500584920644
115
2.16501276270693
103
2.16501967620742
104
2.16502658970791
100
2.16503350320839
115
2.16504041670888
109
2.16504733020937
102
2.16505424370986
119
2.16506115721034
117
2.16506807071083
98
2.16507498421132
96
2.16508189771181
103
2.16508881121229
104
2.16509572471278
108
2.16510263821327
99
2.16510955171376
119
2.16511646521424
101
2.16512337871473
107
2.16513029221522
111
2.16513720571571
108
2.16514411921619
129
2.16515103271668
121
2.16515794621717
109
2.16516485971766
102
2.16517177321814
116
2.16517868671863
115
2.16518560021912
123
2.16519251371961
115
2.16519942722009
118
2.16520634072058
116
2.16521325422107
99
2.16522016772156
115
2.16522708122204
111
2.16523399472253
114
2.16524090822302
109
2.16524782172351
111
2.16525473522399
119
2.16526164872448
115
2.16526856222497
114
2.16527547572546
102
2.16528238922594
108
2.16528930272643
107
2.16529621622692
108
2.16530312972741
107
2.16531004322789
109
2.16531695672838
120
2.16532387022887
97
2.16533078372936
99
2.16533769722984
103
2.16534461073033
115
2.16535152423082
110
2.16535843773131
101
2.16536535123179
112
2.16537226473228
121
2.16537917823277
110
2.16538609173326
95
2.16539300523374
110
2.16539991873423
118
2.16540683223472
104
2.16541374573521
113
2.1654206592357
107
2.16542757273618
124
2.16543448623667
105
2.16544139973716
110
2.16544831323765
99
2.16545522673813
103
2.16546214023862
124
2.16546905373911
118
2.1654759672396
91
2.16548288074008
109
2.16548979424057
106
2.16549670774106
106
2.16550362124155
108
2.16551053474203
121
2.16551744824252
115
2.16552436174301
101
2.1655312752435
100
2.16553818874398
104
2.16554510224447
104
2.16555201574496
118
2.16555892924545
104
2.16556584274593
106
2.16557275624642
120
2.16557966974691
115
2.1655865832474
114
2.16559349674788
119
2.16560041024837
109
2.16560732374886
109
2.16561423724935
112
2.16562115074983
100
2.16562806425032
111
2.16563497775081
106
2.1656418912513
116
2.16564880475178
113
2.16565571825227
99
2.16566263175276
114
2.16566954525325
104
2.16567645875373
106
2.16568337225422
106
2.16569028575471
105
2.1656971992552
104
2.16570411275568
106
2.16571102625617
107
2.16571793975666
110
2.16572485325715
105
2.16573176675763
101
2.16573868025812
113
2.16574559375861
106
2.1657525072591
91
2.16575942075958
119
2.16576633426007
115
2.16577324776056
97
2.16578016126105
116
2.16578707476153
112
2.16579398826202
110
2.16580090176251
112
2.165807815263
125
2.16581472876348
107
2.16582164226397
102
2.16582855576446
107
2.16583546926495
108
2.16584238276543
110
2.16584929626592
111
2.16585620976641
124
2.1658631232669
123
2.16587003676738
105
2.16587695026787
100
2.16588386376836
114
2.16589077726885
112
2.16589769076933
110
2.16590460426982
108
2.16591151777031
122
2.1659184312708
121
2.16592534477128
101
2.16593225827177
108
2.16593917177226
119
2.16594608527275
110
2.16595299877323
113
2.16595991227372
110
2.16596682577421
104
2.1659737392747
125
2.16598065277518
116
2.16598756627567
117
2.16599447977616
112
2.16600139327665
119
2.16600830677713
114
2.16601522027762
108
2.16602213377811
114
2.1660290472786
109
2.16603596077908
117
2.16604287427957
111
2.16604978778006
108
2.16605554455782
114
2.16606117281082
115
2.16606680106383
121
2.16607242931684
114
2.16607805756985
119
2.16608368582286
112
2.16608931407587
116
2.16609494232887
106
2.16610057058188
115
2.16610619883489
110
2.1661118270879
112
2.16611745534091
110
2.16612308359392
100
2.16612871184693
113
2.16613434009993
110
2.16613996835294
105
2.16614559660595
114
2.16615122485896
87
2.16615685311197
108
2.16616248136498
107
2.16616810961798
123
2.16617373787099
122
2.166179366124
111
2.16618499437701
121
2.16619062263002
107
2.16619625088303
121
2.16620187913603
108
2.16620750738904
124
2.16621313564205
112
2.16621876389506
96
2.16622439214807
105
2.16623002040108
109
2.16623564865408
118
2.16624127690709
104
2.1662469051601
107
2.16625253341311
100
2.16625816166612
104
2.16626378991913
108
2.16626941817213
101
2.16627504642514
120
2.16628067467815
107
2.16628630293116
108
2.16629193118417
100
2.16629755943718
114
2.16630318769018
118
2.16630881594319
105
2.1663144441962
102
2.16632007244921
107
2.16632570070222
113
2.16633132895523
117
2.16633695720824
106
2.16634258546124
97
2.16634821371425
104
2.16635384196726
92
2.16635947022027
100
2.16636509847328
96
2.16637072672629
117
2.16637635497929
103
2.1663819832323
101
2.16638761148531
98
2.16639323973832
101
2.16639886799133
110
2.16640449624434
102
2.16641012449734
109
2.16641575275035
129
2.16642138100336
130
2.16642700925637
121
2.16643263750938
118
2.16643826576239
110
2.16644389401539
121
2.1664495222684
111
2.16645515052141
120
2.16646077877442
106
2.16646640702743
100
2.16647203528044
107
2.16647766353345
96
2.16648329178645
107
2.16648892003946
120
2.16649454829247
123
2.16650017654548
121
2.16650580479849
118
2.1665114330515
104
2.1665170613045
96
2.16652268955751
102
2.16652831781052
115
2.16653394606353
113
2.16653957431654
103
2.16654520256955
105
2.16655083082255
121
2.16655645907556
116
2.16656208732857
105
2.16656771558158
106
2.16657334383459
112
2.1665789720876
116
2.1665846003406
115
2.16659022859361
110
2.16659585684662
117
2.16660148509963
121
2.16660711335264
117
2.16661274160565
103
2.16661836985866
113
2.16662399811166
122
2.16662962636467
124
2.16663525461768
113
2.16664088287069
115
2.1666465111237
115
2.16665213937671
119
2.16665776762971
113
2.16666339588272
110
2.16666902413573
103
2.16667465238874
122
2.16668028064175
116
2.16668590889476
99
2.16669153714776
99
2.16669716540077
118
2.16670279365378
113
2.16670842190679
114
2.1667140501598
111
2.16671967841281
137
2.16672530666581
119
2.16673093491882
128
2.16673656317183
127
2.16674219142484
123
2.16674781967785
107
2.16675344793086
116
2.16675907618386
126
2.16676470443687
115
2.16677033268988
112
2.16677596094289
120
2.1667815891959
127
2.16678721744891
114
2.16679284570191
99
2.16679847395492
111
2.16680410220793
119
2.16680973046094
111
2.16681535871395
114
2.16682098696696
120
2.16682661521997
126
2.16683224347297
128
2.16683787172598
114
2.16684349997899
116
2.166849128232
112
2.16685475648501
105
2.16686038473802
104
2.16686601299102
115
2.16687164124403
111
2.16687726949704
110
2.16688289775005
111
2.16688852600306
110
2.16689415425607
100
2.16689978250907
106
2.16690541076208
125
2.16691103901509
127
2.1669166672681
111
2.16692229552111
107
2.16692792377412
114
2.16693355202712
133
2.16693918028013
122
2.16694480853314
109
2.16695043678615
106
2.16695606503916
96
2.16696169329217
91
2.16696732154518
103
2.16697294979818
111
2.16697857805119
117
2.1669842063042
113
2.16698983455721
116
2.16699546281022
109
2.16700109106323
108
2.16700671931623
102
2.16701234756924
111
2.16701797582225
120
2.16702360407526
103
2.16702923232827
106
2.16703486058128
104
2.16704048883428
112
2.16704611708729
101
2.1670517453403
123
2.16705737359331
122
2.16706300184632
109
2.16706863009933
96
2.16707425835233
123
2.16707988660534
107
2.16708551485835
100
2.16709114311136
110
2.16709677136437
113
2.16710239961738
98
2.16710802787038
93
2.16711365612339
118
2.1671192843764
111
2.16712491262941
119
2.16713054088242
120
2.16713616913543
108
2.16714179738844
115
2.16714742564144
125
2.16715305389445
108
2.16715868214746
121
2.16716431040047
144
2.16716993865348
122
2.16717556690649
112
2.16718119515949
99
2.1671868234125
115
2.16719245166551
97
2.16719807991852
88
2.16720370817153
112
2.16720933642454
115
2.16721496467754
97
2.16722059293055
111
2.16722622118356
113
2.16723184943657
109
2.16723747768958
123
2.16724310594259
134
2.16724873419559
117
2.1672543624486
118
2.16725999070161
127
2.16726561895462
127
2.16727124720763
115
2.16727687546064
100
2.16728250371364
90
2.16728813196665
97
2.16729376021966
111
2.16729938847267
112
2.16730501672568
108
2.16731064497869
119
2.1673162732317
121
2.1673219014847
111
2.16732752973771
113
2.16733315799072
115
2.16733878624373
109
2.16734441449674
98
2.16735004274975
112
2.16735567100275
122
2.16736129925576
114
2.16736692750877
114
2.16737255576178
116
2.16737818401479
116
2.1673838122678
124
2.1673894405208
111
2.16739506877381
110
2.16740069702682
129
2.16740632527983
102
2.16741195353284
112
2.16741758178585
101
2.16742321003885
104
2.16742883829186
113
2.16743446654487
116
2.16744009479788
112
2.16744572305089
104
2.1674513513039
99
2.16745697955691
111
2.16746260780991
109
2.16746823606292
111
2.16747386431593
120
2.16747949256894
136
2.16748512082195
132
2.16749074907496
104
2.16749637732796
108
2.16750200558097
109
2.16750763383398
91
2.16751326208699
98
2.16751889034
111
2.16752451859301
135
2.16753014684601
130
2.16753577509902
122
2.16754140335203
124
2.16754703160504
109
2.16755265985805
131
2.16755828811106
117
2.16756391636406
110
2.16756954461707
123
2.16757517287008
113
2.16758080112309
110
2.1675864293761
114
2.16759205762911
115
2.16759768588211
117
2.16760331413512
117
2.16760894238813
98
2.16761457064114
116
2.16762019889415
95
2.16762582714716
113
2.16763145540017
119
2.16763708365317
117
2.16764271190618
111
2.16764834015919
112
2.1676539684122
111
2.16765959666521
118
2.16766522491822
119
2.16767085317122
126
2.16767648142423
122
2.16768210967724
107
2.16768773793025
103
2.16769336618326
109
2.16769899443627
117
2.16770462268927
118
2.16771025094228
100
2.16771587919529
98
2.1677215074483
121
2.16772713570131
105
2.16773276395432
104
2.16773839220732
104
2.16774402046033
110
2.16774964871334
103
2.16775527696635
110
2.16776090521936
113
2.16776653347237
104
2.16777216172537
118
2.16777778997838
117
2.16778341823139
121
2.1677890464844
116
2.16779467473741
113
2.16780030299042
112
2.16780593124343
118
2.16781155949643
109
2.16781718774944
123
2.16782281600245
128
2.16782844425546
129
2.16783407250847
131
2.16783970076148
124
2.16784532901448
118
2.16785095726749
98
2.1678565855205
115
2.16786221377351
108
2.16786784202652
114
2.16787347027953
115
2.16787909853253
110
2.16788472678554
122
2.16789035503855
113
2.16789598329156
110
2.16790161154457
120
2.16790723979758
117
2.16791286805058
111
2.16791849630359
111
2.1679241245566
110
2.16792975280961
117
2.16793538106262
130
2.16794100931563
141
2.16794663756863
112
2.16795226582164
101
2.16795789407465
113
2.16796352232766
122
2.16796915058067
100
2.16797477883368
96
2.16798040708669
124
2.16798603533969
114
2.1679916635927
114
2.16799729184571
107
2.16800292009872
103
2.16800854835173
111
2.16801417660474
118
2.16801980485774
101
2.16802543311075
110
2.16803106136376
101
2.16803668961677
94
2.16804231786978
97
2.16804794612279
110
2.16805357437579
116
2.1680592026288
116
2.16806483088181
115
2.16807045913482
100
2.16807608738783
117
2.16808171564084
123
2.16808734389384
107
2.16809297214685
120
2.16809860039986
105
2.16810422865287
107
2.16810985690588
102
2.16811548515889
O 1s
Ni-W
2020
8
27
14
22
28
7
39
Creation
Created by : 600-72-HP\600-72
Date created : 27/08/2020 14:22
Computer : 600-72-HP
Location
Location ID : 0-150W
Sample : Ni-W
Description : (21.195,11.291,0.905)mm
Tilt : 0.00
Charge Neutraliser : On
Filament Current : 0.45A
Filament Bias : 1V
Charge Balance : 4V
Settings
Excitation
Mode : XPS - monochromatic
Tuning : Spectroscopy
Emission current : 15.00mA
Anode library : Al
ESCA modes
Collimation : Slot
Lens : Hybrid
Resolution : 20.00
Scan
Deflection : (0.000, 0.000)mm
O 1s : 941.690-966.690eV, Sweeps 5
Start : 941.690eV
End : 966.690eV
Centre : 954.190eV
Width : 25.000eV
Step size : 0.100eV
Number Steps : 250
Dwell time : 239ms
Sweep time : 60s
Sweeps : 5
Instrument Conditions
Work function : -4.50
Acquisition Conditions
X-ray Power : 225.00W
XPS
3
21.19525
11.290625
0.905375
Al (mono)
1486.69
225
1E+37
1E+37
1E+37
1E+37
FAT
20
1E+37
-4.5
1E+37
1E+37
1E+37
1E+37
1E+37
O
1s
-1
Kinetic energy
eV
941.69
0.1
2
Intensity
d
Transmission
d
pulse counting
0.239043
5
0
1E+37
1E+37
1E+37
0
502
1268
5166
2.16761917009364
2.16796441289868
1620
2.16796441289868
1707
2.16796303192746
1672
2.16796165095624
1648
2.16796026998502
1606
2.1679588890138
1709
2.16795750804258
1737
2.16795612707136
1691
2.16795474610014
1736
2.16795336512892
1706
2.1679519841577
1762
2.16795060318648
1747
2.16794922221526
1624
2.16794784124404
1619
2.16794646027282
1708
2.1679450793016
1710
2.16794369833038
1649
2.16794231735916
1695
2.16794093638794
1668
2.16793955541672
1623
2.1679381744455
1697
2.16793679347428
1660
2.16793541250306
1707
2.16793403153184
1760
2.16793265056062
1727
2.1679312695894
1642
2.16792988861818
1657
2.16792850764696
1720
2.16792712667574
1717
2.16792574570452
1718
2.1679243647333
1696
2.16792298376208
1699
2.16792160279086
1655
2.16792022181964
1709
2.16791884084842
1699
2.1679174598772
1646
2.16791607890598
1685
2.16791469793476
1686
2.16791331696354
1675
2.16791193599232
1674
2.1679105550211
1656
2.16790917404988
1728
2.16790779307866
1666
2.16790641210744
1674
2.16790503113622
1697
2.167903650165
1623
2.16790226919378
1639
2.16790088822256
1614
2.16789950725134
1619
2.16789812628012
1637
2.1678967453089
1665
2.16789536433768
1612
2.16789398336646
1630
2.16789260239524
1604
2.16789122142402
1655
2.1678898404528
1616
2.16788845948158
1593
2.16788707851036
1554
2.16788569753914
1556
2.16788431656791
1542
2.16788293559669
1597
2.16788155462547
1548
2.16788017365425
1585
2.16787879268303
1588
2.16787741171181
1542
2.16787603074059
1565
2.16787464976937
1536
2.16787326879815
1526
2.16787188782693
1511
2.16787050685571
1611
2.16786912588449
1572
2.16786774491327
1544
2.16786636394205
1556
2.16786498297083
1586
2.16786360199961
1502
2.16786222102839
1478
2.16786084005717
1457
2.16785945908595
1559
2.16785807811473
1572
2.16785669714351
1580
2.16785531617229
1571
2.16785393520107
1512
2.16785255422985
1494
2.16785117325863
1519
2.16784979228741
1546
2.16784841131619
1540
2.16784703034497
1518
2.16784564937375
1564
2.16784426840253
1536
2.16784288743131
1540
2.16784150646009
1517
2.16784012548887
1535
2.16783874451765
1548
2.16783736354643
1544
2.16783598257521
1547
2.16783460160399
1530
2.16783322063277
1490
2.16783183966155
1476
2.16783045869033
1521
2.16782907771911
1549
2.16782769674789
1550
2.16782631577667
1543
2.16782493480545
1555
2.16782355383423
1512
2.16782217286301
1498
2.16782079189179
1502
2.16781941092057
1559
2.16781802994935
1491
2.16781664897813
1495
2.16781526800691
1471
2.16781388703569
1467
2.16781250606447
1530
2.16781112509325
1469
2.16780974412203
1475
2.16780836315081
1516
2.16780698217959
1468
2.16780560120837
1477
2.16780422023715
1477
2.16780283926592
1500
2.1678014582947
1444
2.16780007732348
1419
2.16779869635226
1444
2.16779731538104
1470
2.16779593440982
1423
2.1677945534386
1483
2.16779317246738
1420
2.16779179149616
1455
2.16779041052494
1443
2.16778902955372
1413
2.1677876485825
1448
2.16778626761128
1480
2.16778488664006
1474
2.16778350566884
1469
2.16778212469762
1511
2.1677807437264
1460
2.16777936275518
1496
2.16777798178396
1529
2.16777660081274
1542
2.16777521984152
1522
2.1677738388703
1539
2.16777245789908
1598
2.16777107692786
1684
2.16776969595664
1671
2.16776831498542
1732
2.1677669340142
1809
2.16776555304298
1851
2.16776417207176
1958
2.16776279110054
2044
2.16776141012932
2056
2.1677600291581
2159
2.16775864818688
2245
2.16775726721566
2373
2.16775588624444
2456
2.16775450527322
2632
2.167753124302
2762
2.16775174333078
2921
2.16775036235956
3147
2.16774898138834
3269
2.16774760041712
3596
2.1677462194459
3857
2.16774483847468
4109
2.16774345750346
4526
2.16774207653224
4667
2.16774069556102
4890
2.1677393145898
4998
2.16773793361858
5106
2.16773655264736
5166
2.16773517167614
5050
2.16773379070492
4677
2.1677324097337
4423
2.16773102876248
4098
2.16772964779126
3828
2.16772826682004
3518
2.16772688584882
3088
2.1677255048776
2753
2.16772412390638
2496
2.16772274293516
2256
2.16772136196394
2087
2.16771998099272
1891
2.1677186000215
1757
2.16771721905027
1677
2.16771583807905
1598
2.16771445710783
1571
2.16771307613661
1445
2.16771169516539
1405
2.16771031419417
1473
2.16770893322295
1487
2.16770755225173
1412
2.16770617128051
1333
2.16770479030929
1348
2.16770340933807
1334
2.16770202836685
1326
2.16770064739563
1342
2.16769926642441
1316
2.16769788545319
1346
2.16769650448197
1352
2.16769512351075
1319
2.16769374253953
1310
2.16769236156831
1338
2.16769098059709
1322
2.16768959962587
1338
2.16768821865465
1370
2.16768683768343
1353
2.16768545671221
1375
2.16768407574099
1339
2.16768269476977
1328
2.16768131379855
1360
2.16767993282733
1365
2.16767855185611
1352
2.16767717088489
1363
2.16767578991367
1380
2.16767440894245
1303
2.16767302797123
1407
2.16767164700001
1268
2.16767026602879
1309
2.16766888505757
1320
2.16766750408635
1355
2.16766612311513
1313
2.16766474214391
1329
2.16766336117269
1296
2.16766198020147
1378
2.16766059923025
1322
2.16765921825903
1343
2.16765783728781
1333
2.16765645631659
1361
2.16765507534537
1339
2.16765369437415
1317
2.16765231340293
1334
2.16765093243171
1352
2.16764955146049
1339
2.16764817048927
1287
2.16764678951805
1362
2.16764540854683
1384
2.16764402757561
1291
2.16764264660439
1358
2.16764126563317
1295
2.16763988466195
1305
2.16763850369073
1291
2.1676371227195
1384
2.16763574174828
1326
2.16763436077706
1319
2.16763297980584
1320
2.16763159883462
1360
2.1676302178634
1318
2.16762883689218
1336
2.16762745592096
1369
2.16762607494974
1356
2.16762469397852
1337
2.1676233130073
1317
2.16762193203608
1323
2.16762055106486
1315
2.16761917009364
C 1s
Ni-W
2020
8
27
14
22
28
7
39
Creation
Created by : 600-72-HP\600-72
Date created : 27/08/2020 14:22
Computer : 600-72-HP
Location
Location ID : 0-150W
Sample : Ni-W
Description : (21.195,11.291,0.905)mm
Tilt : 0.00
Charge Neutraliser : On
Filament Current : 0.45A
Filament Bias : 1V
Charge Balance : 4V
Settings
Excitation
Mode : XPS - monochromatic
Tuning : Spectroscopy
Emission current : 15.00mA
Anode library : Al
ESCA modes
Collimation : Slot
Lens : Hybrid
Resolution : 20.00
Scan
Deflection : (0.000, 0.000)mm
C 1s : 1186.690-1216.690eV, Sweeps 10
Start : 1186.690eV
End : 1216.690eV
Centre : 1201.690eV
Width : 30.000eV
Step size : 0.100eV
Number Steps : 300
Dwell time : 199ms
Sweep time : 60s
Sweeps : 10
Instrument Conditions
Work function : -4.50
Acquisition Conditions
X-ray Power : 225.00W
XPS
4
21.19525
11.290625
0.905375
Al (mono)
1486.69
225
1E+37
1E+37
1E+37
1E+37
FAT
20
1E+37
-4.5
1E+37
1E+37
1E+37
1E+37
1E+37
C
1s
-1
Kinetic energy
eV
1186.69
0.1
2
Intensity
d
Transmission
d
pulse counting
0.199336
10
0
1E+37
1E+37
1E+37
0
602
1773
2782
2.1032336391655
2.10833355078261
1906
2.10390798702838
1923
2.10388755224465
1875
2.10386711746093
1932
2.10384668267721
1948
2.10382624789348
1883
2.10380581310976
1873
2.10378537832604
1906
2.10376494354231
1892
2.10374450875859
1849
2.10372407397487
1935
2.10370363919114
1951
2.10368320440742
1871
2.10366276962369
1840
2.10364233483997
1853
2.10362190005625
1864
2.10360146527252
1917
2.1035810304888
1906
2.10356059570508
1847
2.10354016092135
1920
2.10351972613763
1930
2.10349929135391
1888
2.10347885657018
1864
2.10345842178646
1881
2.10343798700273
1893
2.10341755221901
1900
2.10339711743529
1902
2.10337668265156
1920
2.10335624786784
1888
2.10333581308412
1845
2.10331537830039
1836
2.10329494351667
1853
2.10327450873294
1886
2.10325407394922
1849
2.1032336391655
1816
2.10324879973203
1818
2.10326791533749
1859
2.10328703094294
1843
2.10330614654839
1886
2.10332526215385
1895
2.1033443777593
1889
2.10336349336475
1896
2.10338260897021
1879
2.10340172457566
1829
2.10342084018111
1825
2.10343995578657
1878
2.10345907139202
1911
2.10347818699747
1870
2.10349730260293
1860
2.10351641820838
1784
2.10353553381383
1856
2.10355464941929
1925
2.10357376502474
1886
2.10359288063019
1866
2.10361199623565
1864
2.1036311118411
1887
2.10365022744655
1810
2.10366934305201
1811
2.10368845865746
1819
2.10370757426291
1823
2.10372668986837
1871
2.10374580547382
1900
2.10376492107927
1824
2.10378403668473
1902
2.10380315229018
1872
2.10382226789563
1873
2.10384138350109
1876
2.10386049910654
1885
2.10387961471199
1882
2.10389873031745
1823
2.1039178459229
1858
2.10393696152835
1871
2.10395607713381
1899
2.10397519273926
1899
2.10399430834471
1773
2.10401342395017
1838
2.10403253955562
1924
2.10405165516107
1890
2.10407077076653
1865
2.10408988637198
1860
2.10410900197743
1850
2.10412811758289
1893
2.10414723318834
1848
2.10416634879379
1858
2.10418546439925
1919
2.1042045800047
1891
2.10422369561015
1841
2.10424281121561
1852
2.10426192682106
1871
2.10428104242651
1908
2.10430015803197
1879
2.10431927363742
1913
2.10433838924287
1943
2.10435750484833
1861
2.10437662045378
1938
2.10439573605923
1923
2.10441485166469
1881
2.10443396727014
1904
2.10445308287559
1917
2.10447219848105
1869
2.1044913140865
1823
2.10451042969195
1816
2.1045295452974
1835
2.10454866090286
1832
2.10456777650831
1851
2.10458689211376
1808
2.10460600771922
1851
2.10462512332467
1853
2.10464423893013
1865
2.10466335453558
1888
2.10468247014103
1898
2.10470158574649
1922
2.10472070135194
1913
2.10473981695739
1935
2.10475893256284
1911
2.1047780481683
1890
2.10479716377375
1957
2.1048162793792
1890
2.10483539498466
1875
2.10485451059011
1959
2.10487362619556
1912
2.10489274180102
1929
2.10491185740647
1907
2.10493097301192
1876
2.10495008861738
1882
2.10496920422283
1947
2.10498831982828
1941
2.10500743543374
1931
2.10502655103919
1949
2.10504566664464
1899
2.1050647822501
1999
2.10508389785555
1930
2.105103013461
1949
2.10512212906646
2034
2.10514124467191
2018
2.10516036027736
1987
2.10517947588282
1951
2.10519859148827
1918
2.10521770709372
2046
2.10523682269918
1979
2.10525593830463
1922
2.10527505391008
1918
2.10529416951554
1987
2.10531328512099
1988
2.10533240072644
1891
2.1053515163319
1976
2.10537063193735
1955
2.1053897475428
1945
2.10540886314826
1956
2.10542797875371
1956
2.10544709435916
1954
2.10546620996462
1984
2.10548532557007
1965
2.10550444117552
2002
2.10552355678098
1988
2.10554267238643
2057
2.10556178799188
2063
2.10558090359734
2090
2.10560001920279
2072
2.10561913480824
2103
2.1056382504137
2085
2.10565736601915
2116
2.1056764816246
2157
2.10569559723006
2166
2.10571471283551
2223
2.10573382844096
2211
2.10575294404642
2210
2.10577205965187
2326
2.10579117525732
2310
2.10581029086278
2377
2.10582940646823
2492
2.10584852207368
2494
2.10586763767914
2667
2.10588675328459
2657
2.10590586889004
2745
2.1059249844955
2782
2.10594410010095
2717
2.1059632157064
2760
2.10598233131186
2731
2.10600144691731
2780
2.10602056252276
2733
2.10603967812822
2669
2.10605879373367
2577
2.10607790933912
2436
2.10609702494458
2379
2.10611614055003
2302
2.10613525615548
2246
2.10615437176094
2210
2.10617348736639
2129
2.10619260297184
2017
2.1062117185773
2023
2.10623083418275
1980
2.1062499497882
1991
2.10626906539366
1902
2.10628818099911
1825
2.10630729660456
1871
2.10632641221002
1853
2.10634552781547
1832
2.10636464342092
1854
2.10638375902638
1895
2.10640287463183
1903
2.10642199023728
1926
2.10644110584274
1913
2.10646022144819
1842
2.10647933705364
1911
2.1064984526591
1931
2.10651756826455
1909
2.10653668387
1841
2.10655579947546
1817
2.10657491508091
1884
2.10659403068636
1891
2.10661314629182
1837
2.10663226189727
1825
2.10665137750272
1848
2.10667049310818
1856
2.10668960871363
1784
2.10670872431908
1916
2.10672783992454
1896
2.10674695552999
1927
2.10676607113544
1871
2.1067851867409
1880
2.10680430234635
1819
2.1068234179518
1824
2.10684253355726
1852
2.10686164916271
1913
2.10688076476816
1845
2.10689988037362
1891
2.10691899597907
1848
2.10693811158452
1888
2.10695722718998
1841
2.10697634279543
1951
2.10699545840088
1886
2.10701457400634
1886
2.10703368961179
1896
2.10705280521724
1857
2.1070719208227
1930
2.10709103642815
1888
2.1071101520336
1886
2.10712926763906
1905
2.10714838324451
1837
2.10716749884996
1831
2.10718661445542
1890
2.10720573006087
1875
2.10722484566632
1884
2.10724396127178
1918
2.10726307687723
1909
2.10728219248268
1894
2.10730130808814
1865
2.10732042369359
1900
2.10733953929904
1882
2.1073586549045
1851
2.10737777050995
1905
2.1073968861154
1856
2.10741600172086
1945
2.10743511732631
1963
2.10745423293176
1952
2.10747334853722
2009
2.10749246414267
1903
2.10751157974812
1872
2.10753069535358
1871
2.10754981095903
1889
2.10756892656448
1882
2.10758804216994
1899
2.10760715777539
1909
2.10762627338084
1897
2.1076453889863
1879
2.10766450459175
1842
2.1076836201972
1850
2.10770273580266
1906
2.10772185140811
1857
2.10774096701356
1843
2.10776008261902
1871
2.10777919822447
1913
2.10779831382992
1908
2.10781742943538
1882
2.10783654504083
1848
2.10785566064628
1890
2.10787477625174
1851
2.10789389185719
1905
2.10791300746264
1897
2.1079321230681
1868
2.10795123867355
1877
2.107970354279
1903
2.10798946988445
1896
2.10800858548991
1823
2.10802770109536
1854
2.10804681670081
1845
2.10806593230627
1846
2.10808504791172
1860
2.10810416351717
1894
2.10812327912263
1823
2.10814239472808
1818
2.10816151033353
1843
2.10818062593899
1846
2.10819974154444
1869
2.1082188571499
1840
2.10823797275535
1890
2.1082570883608
1855
2.10827620396625
1825
2.10829531957171
1846
2.10831443517716
1820
2.10833355078261
W 4f
Ni-W
2020
8
27
14
22
28
7
39
Creation
Created by : 600-72-HP\600-72
Date created : 27/08/2020 14:22
Computer : 600-72-HP
Location
Location ID : 0-150W
Sample : Ni-W
Description : (21.195,11.291,0.905)mm
Tilt : 0.00
Charge Neutraliser : On
Filament Current : 0.45A
Filament Bias : 1V
Charge Balance : 4V
Settings
Excitation
Mode : XPS - monochromatic
Tuning : Spectroscopy
Emission current : 15.00mA
Anode library : Al
ESCA modes
Collimation : Slot
Lens : Hybrid
Resolution : 20.00
Scan
Deflection : (0.000, 0.000)mm
W 4f : 1436.690-1461.690eV, Sweeps 10
Start : 1436.690eV
End : 1461.690eV
Centre : 1449.190eV
Width : 25.000eV
Step size : 0.100eV
Number Steps : 250
Dwell time : 239ms
Sweep time : 60s
Sweeps : 10
Instrument Conditions
Work function : -4.50
Acquisition Conditions
X-ray Power : 225.00W
XPS
5
21.19525
11.290625
0.905375
Al (mono)
1486.69
225
1E+37
1E+37
1E+37
1E+37
FAT
20
1E+37
-4.5
1E+37
1E+37
1E+37
1E+37
1E+37
W
4f
-1
Kinetic energy
eV
1436.69
0.1
2
Intensity
d
Transmission
d
pulse counting
0.239044
10
0
1E+37
1E+37
1E+37
0
502
78
5360
1.91094520328784
1.93082618511009
897
1.93082618511009
861
1.93074666118281
922
1.93066713725552
910
1.93058761332823
844
1.93050808940094
872
1.93042856547365
855
1.93034904154636
883
1.93026951761907
845
1.93018999369178
846
1.93011046976449
834
1.9300309458372
824
1.92995142190992
863
1.92987189798263
824
1.92979237405534
785
1.92971285012805
827
1.92963332620076
817
1.92955380227347
801
1.92947427834618
799
1.92939475441889
799
1.9293152304916
750
1.92923570656431
735
1.92915618263702
734
1.92907665870974
757
1.92899713478245
701
1.92891761085516
687
1.92883808692787
694
1.92875856300058
708
1.92867903907329
709
1.928599515146
656
1.92851999121871
659
1.92844046729142
682
1.92836094336413
664
1.92828141943685
632
1.92820189550956
634
1.92812237158227
638
1.92804284765498
612
1.92796332372769
643
1.9278837998004
580
1.92780427587311
619
1.92772475194582
606
1.92764522801853
583
1.92756570409124
578
1.92748618016396
562
1.92740665623667
600
1.92732713230938
567
1.92724760838209
582
1.9271680844548
579
1.92708856052751
548
1.92700903660022
559
1.92692951267293
566
1.92684998874564
543
1.92677046481835
536
1.92669094089106
550
1.92661141696378
533
1.92653189303649
543
1.9264523691092
517
1.92637284518191
549
1.92629332125462
523
1.92621379732733
533
1.92613427340004
487
1.92605474947275
501
1.92597522554546
521
1.92589570161817
528
1.92581617769089
571
1.9257366537636
533
1.92565712983631
536
1.92557760590902
510
1.92549808198173
525
1.92541855805444
553
1.92533903412715
520
1.92525951019986
540
1.92517998627257
555
1.92510046234528
565
1.925020938418
529
1.92494141449071
537
1.92486189056342
539
1.92478236663613
513
1.92470284270884
525
1.92462331878155
560
1.92454379485426
566
1.92446427092697
530
1.92438474699968
539
1.92430522307239
594
1.9242256991451
617
1.92414617521782
574
1.92406665129053
574
1.92398712736324
574
1.92390760343595
587
1.92382807950866
595
1.92374855558137
597
1.92366903165408
596
1.92358950772679
579
1.9235099837995
578
1.92343045987221
622
1.92335093594493
655
1.92327141201764
680
1.92319188809035
638
1.92311236416306
661
1.92303284023577
711
1.92295331630848
655
1.92287379238119
660
1.9227942684539
715
1.92271474452661
710
1.92263522059932
727
1.92255569667203
762
1.92247617274475
721
1.92239664881746
744
1.92231712489017
782
1.92223760096288
738
1.92215807703559
733
1.9220785531083
702
1.92199902918101
721
1.92191950525372
692
1.92183998132643
613
1.92176045739914
604
1.92168093347186
617
1.92160140954457
598
1.92152188561728
568
1.92144236168999
543
1.9213628377627
529
1.92128331383541
477
1.92120378990812
491
1.92112426598083
475
1.92104474205354
465
1.92096521812625
481
1.92088569419897
480
1.92080617027168
522
1.92072664634439
570
1.9206471224171
609
1.92056759848981
619
1.92048807456252
755
1.92040855063523
916
1.92032902670794
1064
1.92024950278065
1247
1.92016997885336
1574
1.92009045492607
1805
1.92001093099879
2178
1.9199314070715
2678
1.91985188314421
3140
1.91977235921692
3475
1.91969283528963
3995
1.91961331136234
4178
1.91953378743505
4381
1.91945426350776
4275
1.91937473958047
4125
1.91929521565318
3852
1.9192156917259
3340
1.91913616779861
2832
1.91905664387132
2370
1.91897711994403
1996
1.91889759601674
1711
1.91881807208945
1545
1.91873854816216
1461
1.91865902423487
1537
1.91857950030758
1645
1.91849997638029
1915
1.91842045245301
2235
1.91834092852572
2604
1.91826140459843
3103
1.91818188067114
3632
1.91810235674385
4277
1.91802283281656
4724
1.91794330888927
5174
1.91786378496198
5360
1.91778426103469
5359
1.9177047371074
5216
1.91762521318011
4828
1.91754568925283
4228
1.91746616532554
3599
1.91738664139825
3047
1.91730711747096
2402
1.91722759354367
1812
1.91714806961638
1345
1.91706854568909
1055
1.9169890217618
821
1.91690949783451
625
1.91682997390722
461
1.91675044997994
398
1.91667092605265
325
1.91659140212536
247
1.91651187819807
212
1.91643235427078
186
1.91635283034349
154
1.9162733064162
159
1.91619378248891
140
1.91611425856162
131
1.91603473463433
129
1.91595521070704
120
1.91587568677976
119
1.91579616285247
114
1.91571663892518
101
1.91563711499789
110
1.9155575910706
119
1.91547806714331
117
1.91539854321602
96
1.91531901928873
88
1.91523949536144
95
1.91515997143415
93
1.91508044750687
115
1.91500092357958
124
1.91492139965229
102
1.914841875725
92
1.91476235179771
95
1.91468282787042
103
1.91460330394313
104
1.91452378001584
116
1.91444425608855
108
1.91436473216126
87
1.91428520823398
97
1.91420568430669
109
1.9141261603794
86
1.91404663645211
91
1.91396711252482
102
1.91388758859753
91
1.91380806467024
97
1.91372854074295
84
1.91364901681566
86
1.91356949288837
105
1.91348996896108
108
1.9134104450338
94
1.91333092110651
99
1.91325139717922
96
1.91317187325193
94
1.91309234932464
120
1.91301282539735
102
1.91293330147006
101
1.91285377754277
78
1.91277425361548
89
1.91269472968819
111
1.91261520576091
101
1.91253568183362
94
1.91245615790633
88
1.91237663397904
102
1.91229711005175
93
1.91221758612446
108
1.91213806219717
97
1.91205853826988
116
1.91197901434259
95
1.9118994904153
101
1.91181996648801
83
1.91174044256073
97
1.91166091863344
106
1.91158139470615
105
1.91150187077886
100
1.91142234685157
95
1.91134282292428
103
1.91126329899699
104
1.9111837750697
104
1.91110425114241
94
1.91102472721512
107
1.91094520328784
end of experiment
